#           x             T        mag(U)             p
       -4.995       348.432    7.5037e-12        100000
       -4.985       348.432   6.53657e-12        100000
       -4.975       348.432   6.02309e-12        100000
       -4.965       348.432   7.05004e-12        100000
       -4.955       348.432   6.12083e-12        100000
       -4.945       348.432   7.55914e-12        100000
       -4.935       348.432   7.12298e-12        100000
       -4.925       348.432   8.46355e-12        100000
       -4.915       348.432   6.08144e-12        100000
       -4.905       348.432   7.90777e-12        100000
       -4.895       348.432   4.89258e-12        100000
       -4.885       348.432   5.77073e-12        100000
       -4.875       348.432   4.16759e-12        100000
       -4.865       348.432   5.70655e-12        100000
       -4.855       348.432   4.73212e-12        100000
       -4.845       348.432   5.23392e-12        100000
       -4.835       348.432   3.73872e-12        100000
       -4.825       348.432   4.17926e-12        100000
       -4.815       348.432   3.17128e-12        100000
       -4.805       348.432   5.34041e-12        100000
       -4.795       348.432   4.63876e-12        100000
       -4.785       348.432   4.54248e-12        100000
       -4.775       348.432   5.67883e-12        100000
       -4.765       348.432    4.6621e-12        100000
       -4.755       348.432   5.44398e-12        100000
       -4.745       348.432   6.76267e-12        100000
       -4.735       348.432   6.55845e-12        100000
       -4.725       348.432   5.84951e-12        100000
       -4.715       348.432   5.91807e-12        100000
       -4.705       348.432   5.29227e-12        100000
       -4.695       348.432   6.12812e-12        100000
       -4.685       348.432   4.59062e-12        100000
       -4.675       348.432   5.02824e-12        100000
       -4.665       348.432   4.59937e-12        100000
       -4.655       348.432   6.63722e-12        100000
       -4.645       348.432   5.35354e-12        100000
       -4.635       348.432   6.19814e-12        100000
       -4.625       348.432   5.73281e-12        100000
       -4.615       348.432     6.751e-12        100000
       -4.605       348.432   4.17634e-12        100000
       -4.595       348.432   4.50893e-12        100000
       -4.585       348.432   4.84444e-12        100000
       -4.575       348.432   5.31853e-12        100000
       -4.565       348.432    3.2165e-12        100000
       -4.555       348.432   3.20191e-12        100000
       -4.545       348.432   1.40767e-12        100000
       -4.535       348.432   1.59877e-12        100000
       -4.525       348.432   9.33587e-14        100000
       -4.515       348.432    7.6875e-13        100000
       -4.505       348.432   1.29243e-12        100000
       -4.495       348.432   1.19908e-12        100000
       -4.485       348.432   3.36967e-13        100000
       -4.475       348.432   4.17197e-13        100000
       -4.465       348.432   1.75485e-12        100000
       -4.455       348.432   4.30325e-13        100000
       -4.445       348.432   1.82779e-12        100000
       -4.435       348.432   1.80445e-12        100000
       -4.425       348.432   1.74026e-12        100000
       -4.415       348.432   4.57895e-12        100000
       -4.405       348.432   2.62571e-12        100000
       -4.395       348.432   5.44398e-12        100000
       -4.385       348.432   4.17051e-12        100000
       -4.375       348.432   4.56145e-12        100000
       -4.365       348.432   2.77742e-12        100000
       -4.355       348.432   4.27408e-12        100000
       -4.345       348.432    2.9656e-12        100000
       -4.335       348.432   4.28137e-12        100000
       -4.325       348.432   2.89558e-12        100000
       -4.315       348.432    4.4039e-12        100000
       -4.305       348.432   4.27116e-12        100000
       -4.295       348.432   5.21204e-12        100000
       -4.285       348.432   4.14425e-12        100000
       -4.275       348.432   4.63293e-12        100000
       -4.265       348.432   4.86049e-12        100000
       -4.255       348.432   4.16467e-12        100000
       -4.245       348.432   3.14502e-12        100000
       -4.235       348.432   3.51408e-12        100000
       -4.225       348.432   2.81097e-12        100000
       -4.215       348.432   2.39086e-12        100000
       -4.205       348.432   2.30625e-12        100000
       -4.195       348.432   1.68192e-12        100000
       -4.185       348.432   2.27999e-12        100000
       -4.175       348.432   2.10349e-12        100000
       -4.165       348.432   3.86126e-12        100000
       -4.155       348.432   1.32307e-12        100000
       -4.145       348.432   3.55492e-12        100000
       -4.135       348.432   1.76215e-12        100000
       -4.125       348.432   3.62057e-12        100000
       -4.115       348.432   1.52583e-12        100000
       -4.105       348.432   3.99692e-12        100000
       -4.095       348.432   2.52944e-12        100000
       -4.085       348.432   4.81818e-12        100000
       -4.075       348.432   2.94518e-12        100000
       -4.065       348.432   5.50962e-12        100000
       -4.055       348.432   5.24997e-12        100000
       -4.045       348.432   6.11499e-12        100000
       -4.035       348.432   5.04429e-12        100000
       -4.025       348.432    6.1996e-12        100000
       -4.015       348.432   4.17926e-12        100000
       -4.005       348.432     6.274e-12        100000
       -3.995       348.432   4.83715e-12        100000
       -3.985       348.432   4.96406e-12        100000
       -3.975       348.432   4.61542e-12        100000
       -3.965       348.432   4.59354e-12        100000
       -3.955       348.432   4.73795e-12        100000
       -3.945       348.432   4.60521e-12        100000
       -3.935       348.432   4.36598e-12        100000
       -3.925       348.432   5.27768e-12        100000
       -3.915       348.432   5.06617e-12        100000
       -3.905       348.432   5.54025e-12        100000
       -3.895       348.432   3.98525e-12        100000
       -3.885       348.432   5.24413e-12        100000
       -3.875       348.432   3.33611e-12        100000
       -3.865       348.432    2.2056e-12        100000
       -3.855       348.432   2.48859e-12        100000
       -3.845       348.432     2.916e-12        100000
       -3.835       348.432   2.48276e-12        100000
       -3.825       348.432   3.05312e-12        100000
       -3.815       348.432   3.98087e-12        100000
       -3.805       348.432   4.81235e-12        100000
       -3.795       348.432   5.41772e-12        100000
       -3.785       348.432   5.75615e-12        100000
       -3.775       348.432   4.99615e-12        100000
       -3.765       348.432   4.22448e-12        100000
       -3.755       348.432   4.42287e-12        100000
       -3.745       348.432   4.24344e-12        100000
       -3.735       348.432   4.44621e-12        100000
       -3.725       348.432   5.75469e-12        100000
       -3.715       348.432   5.57964e-12        100000
       -3.705       348.432   5.43523e-12        100000
       -3.695       348.432   4.30617e-12        100000
       -3.685       348.432   3.72122e-12        100000
       -3.675       348.432   2.82702e-12        100000
       -3.665       348.432   2.48859e-12        100000
       -3.655       348.432   2.60237e-12        100000
       -3.645       348.432   2.42441e-12        100000
       -3.635       348.432   2.35731e-12        100000
       -3.625       348.432   3.83354e-12        100000
       -3.615       348.432   5.60736e-12        100000
       -3.605       348.432   5.82471e-12        100000
       -3.595       348.432    5.0472e-12        100000
       -3.585       348.432   4.85757e-12        100000
       -3.575       348.432   6.09749e-12        100000
       -3.565       348.432   7.14632e-12        100000
       -3.555       348.432   7.08943e-12        100000
       -3.545       348.432   7.44536e-12        100000
       -3.535       348.432   6.61826e-12        100000
       -3.525       348.432   6.54532e-12        100000
       -3.515       348.432   6.34401e-12        100000
       -3.505       348.432   3.92982e-12        100000
       -3.495       348.432   4.24053e-12        100000
       -3.485       348.432   4.82548e-12        100000
       -3.475       348.432   3.96191e-12        100000
       -3.465       348.432    3.6089e-12        100000
       -3.455       348.432   3.61911e-12        100000
       -3.445       348.432   3.15669e-12        100000
       -3.435       348.432   3.33028e-12        100000
       -3.425       348.432   4.04652e-12        100000
       -3.415       348.432   3.43823e-12        100000
       -3.405       348.432   3.47178e-12        100000
       -3.395       348.432   1.46019e-12        100000
       -3.385       348.432   1.11447e-12        100000
       -3.375       348.432   2.82994e-13        100000
       -3.365       348.432   1.04153e-12        100000
       -3.355       348.432   1.93865e-12        100000
       -3.345       348.432   2.51631e-12        100000
       -3.335       348.432   1.63378e-12        100000
       -3.325       348.432   2.58779e-12        100000
       -3.315       348.432   3.16982e-12        100000
       -3.305       348.432   4.15738e-12        100000
       -3.295       348.432   4.56291e-12        100000
       -3.285       348.432   4.33097e-12        100000
       -3.275       348.432   3.28944e-12        100000
       -3.265       348.432   2.14287e-12        100000
       -3.255       348.432   2.31355e-12        100000
       -3.245       348.432   1.18157e-12        100000
       -3.235       348.432   1.02111e-12        100000
       -3.225       348.432   6.36006e-13        100000
       -3.215       348.432    5.0472e-13        100000
       -3.205       348.432   1.58272e-12        100000
       -3.195       348.432   4.25949e-13        100000
       -3.185       348.432   3.41343e-13        100000
       -3.175       348.432   4.30325e-13        100000
       -3.165       348.432   1.54771e-12        100000
       -3.155       348.432   8.41687e-13        100000
       -3.145       348.432   1.14948e-12        100000
       -3.135       348.432    8.6065e-13        100000
       -3.125       348.432   5.83492e-14        100000
       -3.115       348.432   9.13165e-13        100000
       -3.105       348.432   7.93549e-13        100000
       -3.095       348.432   1.82195e-12        100000
       -3.085       348.432   1.51416e-12        100000
       -3.075       348.432   2.53819e-12        100000
       -3.065       348.432   1.19032e-12        100000
       -3.055       348.432   1.31723e-12        100000
       -3.045       348.432   1.86134e-12        100000
       -3.035       348.432     2.156e-12        100000
       -3.025       348.432   2.38648e-12        100000
       -3.015       348.432   1.98241e-12        100000
       -3.005       348.432   3.03416e-13        100000
       -2.995       348.432   1.76506e-13        100000
       -2.985       348.432   2.36168e-12        100000
       -2.975       348.432   1.56084e-12        100000
       -2.965       348.432    1.7636e-12        100000
       -2.955       348.432   1.73005e-12        100000
       -2.945       348.432   1.77527e-12        100000
       -2.935       348.432    3.0327e-12        100000
       -2.925       348.432   2.96851e-12        100000
       -2.915       348.432   2.93934e-12        100000
       -2.905       348.432   2.18809e-12        100000
       -2.895       348.432   2.01742e-12        100000
       -2.885       348.432   2.19539e-12        100000
       -2.875       348.432   2.85765e-12        100000
       -2.865       348.432   3.12752e-12        100000
       -2.855       348.432   2.64176e-12        100000
       -2.845       348.432   3.31132e-13        100000
       -2.835       348.432   1.27055e-12        100000
       -2.825       348.432   1.37704e-12        100000
       -2.815       348.432   2.92621e-12        100000
       -2.805       348.432   9.89894e-12        100000
       -2.795       348.432    2.2196e-11        100000
       -2.785       348.432   4.73343e-11        100000
       -2.775       348.432   9.70391e-11        100000
       -2.765       348.432    1.9963e-10        100000
       -2.755       348.432   4.06762e-10        100000
       -2.745       348.432    8.2209e-10        100000
       -2.735       348.432   1.65266e-09        100000
       -2.725       348.432   3.29685e-09        100000
       -2.715       348.432   6.53131e-09        100000
       -2.705       348.432   1.28439e-08        100000
       -2.695       348.432    2.5079e-08        100000
       -2.685       348.432   4.86132e-08        100000
       -2.675       348.432    9.3548e-08        100000
       -2.665       348.432   1.78681e-07        100000
       -2.655       348.432   3.38738e-07        100000
       -2.645       348.432   6.37292e-07        100000
       -2.635       348.432   1.18975e-06        100000
       -2.625       348.432   2.20375e-06        100000
       -2.615       348.432   4.04955e-06        100000
       -2.605       348.432   7.38129e-06        100000
       -2.595       348.432   1.33439e-05        100000
       -2.585       348.432   2.39218e-05        100000
       -2.575       348.432   4.25209e-05        100000
       -2.565       348.432   7.49275e-05        100000
       -2.555       348.432    0.00013087        100000
       -2.545       348.432   0.000226528       99999.9
       -2.535       348.432   0.000388516       99999.9
       -2.525       348.432    0.00066011       99999.8
       -2.515       348.432    0.00111085       99999.6
       -2.505       348.431     0.0018511       99999.3
       -2.495       348.431    0.00305378       99998.9
       -2.485        348.43    0.00498621       99998.2
       -2.475       348.429    0.00805577         99997
       -2.465       348.427     0.0128742       99995.2
       -2.455       348.424     0.0203454       99992.5
       -2.445        348.42     0.0317829       99988.2
       -2.435       348.414     0.0490597       99981.8
       -2.425       348.404     0.0747945       99972.3
       -2.415        348.39      0.112566       99958.2
       -2.405        348.37      0.167142         99938
       -2.395       348.341      0.244689       99909.1
       -2.385       348.301      0.352905       99868.9
       -2.375       348.246      0.500966       99813.7
       -2.365       348.172      0.699153       99739.8
       -2.355       348.076      0.957885       99643.1
       -2.345       347.953       1.28571       99520.4
       -2.335       347.802       1.68626       99370.2
       -2.325       347.625         2.158       99193.7
       -2.315       347.423        2.6981       98992.1
       -2.305       347.196       3.30436       98766.4
       -2.295       346.946       3.97426       98517.7
       -2.285       346.673       4.70438       98247.3
       -2.275       346.379       5.49067       97956.9
       -2.265       346.067       6.32869       97648.3
       -2.255       345.737       7.21384       97323.5
       -2.245       345.391       8.14162       96984.1
       -2.235       345.032        9.1077       96631.9
       -2.225        344.66        10.108       96268.5
       -2.215       344.277        11.139       95895.3
       -2.205       343.885       12.1972       95513.6
       -2.195       343.483       13.2798       95124.6
       -2.185       343.074        14.384       94729.2
       -2.175       342.658       15.5077       94328.4
       -2.165       342.236       16.6487         93923
       -2.155       341.808       17.8053       93513.7
       -2.145       341.376       18.9759         93101
       -2.135       340.939       20.1592       92685.4
       -2.125       340.499       21.3539       92267.6
       -2.115       340.055        22.559       91847.7
       -2.105       339.608       23.7735       91426.3
       -2.095       339.158       24.9967       91003.7
       -2.085       338.705       26.2277         90580
       -2.075        338.25        27.466       90155.6
       -2.065       337.793       28.7109       89730.6
       -2.055       337.334        29.962       89305.3
       -2.045       336.874       31.2188       88879.9
       -2.035       336.411       32.4809       88454.4
       -2.025       335.948       33.7478       88029.1
       -2.015       335.483       35.0193         87604
       -2.005       335.016       36.2951       87179.3
       -1.995       334.549       37.5749       86755.1
       -1.985       334.081       38.8584       86331.4
       -1.975       333.612       40.1455       85908.3
       -1.965       333.141       41.4358         85486
       -1.955        332.67       42.7293       85064.5
       -1.945       332.199       44.0258       84643.8
       -1.935       331.727        45.325         84224
       -1.925       331.254       46.6268       83805.2
       -1.915        330.78       47.9312       83387.3
       -1.905       330.306        49.238       82970.5
       -1.895       329.832        50.547       82554.8
       -1.885       329.357       51.8582       82140.2
       -1.875       328.882       53.1715       81726.8
       -1.865       328.406       54.4867       81314.5
       -1.855        327.93       55.8038       80903.4
       -1.845       327.454       57.1227       80493.6
       -1.835       326.977       58.4433         80085
       -1.825         326.5       59.7656       79677.7
       -1.815       326.023       61.0894       79271.7
       -1.805       325.546       62.4148       78867.1
       -1.795       325.069       63.7416       78463.7
       -1.785       324.591       65.0698       78061.7
       -1.775       324.114       66.3993       77661.1
       -1.765       323.636       67.7302       77261.9
       -1.755       323.158       69.0623         76864
       -1.745        322.68       70.3955       76467.6
       -1.735       322.202       71.7299       76072.6
       -1.725       321.724       73.0654         75679
       -1.715       321.246        74.402       75286.8
       -1.705       320.768       75.7396       74896.1
       -1.695        320.29       77.0782       74506.9
       -1.685       319.812       78.4177       74119.1
       -1.675       319.334       79.7581       73732.7
       -1.665       318.856       81.0994       73347.9
       -1.655       318.378       82.4416       72964.5
       -1.645       317.901       83.7845       72582.6
       -1.635       317.423       85.1283       72202.2
       -1.625       316.945       86.4727       71823.3
       -1.615       316.468        87.818         71446
       -1.605        315.99       89.1639       71070.1
       -1.595       315.513       90.5104       70695.7
       -1.585       315.036       91.8577       70322.8
       -1.575       314.558       93.2055       69951.5
       -1.565       314.082       94.5539       69581.6
       -1.555       313.605       95.9029       69213.3
       -1.545       313.128       97.2525       68846.5
       -1.535       312.652       98.6026       68481.2
       -1.525       312.175       99.9532       68117.5
       -1.515       311.699       101.304       67755.2
       -1.505       311.223       102.656       67394.5
       -1.495       310.748       104.008       67035.4
       -1.485       310.272        105.36       66677.7
       -1.475       309.797       106.713       66321.6
       -1.465       309.322       108.066         65967
       -1.455       308.847        109.42       65613.9
       -1.445       308.372       110.774       65262.4
       -1.435       307.898       112.128       64912.4
       -1.425       307.424       113.482       64563.9
       -1.415        306.95       114.837       64216.9
       -1.405       306.477       116.192       63871.4
       -1.395       306.003       117.548       63527.5
       -1.385        305.53       118.904       63185.1
       -1.375       305.057        120.26       62844.2
       -1.365       304.585       121.616       62504.8
       -1.355       304.113       122.972         62167
       -1.345       303.641       124.329       61830.6
       -1.335       303.169       125.686       61495.8
       -1.325       302.698       127.043       61162.5
       -1.315       302.227         128.4       60830.6
       -1.305       301.756       129.757       60500.3
       -1.295       301.285       131.114       60171.5
       -1.285       300.815       132.472       59844.2
       -1.275       300.345        133.83       59518.4
       -1.265       299.876       135.187         59194
       -1.255       299.407       136.545       58871.2
       -1.245       298.938       137.903       58549.9
       -1.235        298.47       139.261         58230
       -1.225       298.001       140.619       57911.6
       -1.215       297.534       141.977       57594.7
       -1.205       297.066       143.336       57279.3
       -1.195       296.599       144.694       56965.3
       -1.185       296.132       146.052       56652.9
       -1.175       295.666        147.41       56341.8
       -1.165         295.2       148.768       56032.2
       -1.155       294.734       150.127       55724.2
       -1.145       294.269       151.485       55417.6
       -1.135       293.804       152.843       55112.4
       -1.125        293.34       154.201       54808.6
       -1.115       292.876       155.559       54506.3
       -1.105       292.412       156.917       54205.5
       -1.095       291.949       158.275       53906.2
       -1.085       291.486       159.633       53608.1
       -1.075       291.023        160.99       53311.5
       -1.065       290.561       162.348       53016.4
       -1.055       290.099       163.706       52722.9
       -1.045       289.638       165.063       52430.7
       -1.035       289.177        166.42       52139.6
       -1.025       288.716       167.777       51849.9
       -1.015       288.256       169.134       51562.1
       -1.005       287.797       170.491       51276.1
       -0.995       287.338       171.848       50990.9
       -0.985       286.878       173.203       50706.2
       -0.975       286.418       174.558       50423.2
       -0.965       285.962       175.915       50143.1
       -0.955       285.507       177.273         49865
       -0.945        285.05       178.629       49586.4
       -0.935       284.589       179.981       49307.1
       -0.925        284.13       181.333       49030.2
       -0.915       283.678        182.69       48758.5
       -0.905        283.23       184.051       48489.3
       -0.895       282.774       185.407       48217.1
       -0.885       282.309       186.753       47941.1
       -0.875       281.849         188.1       47669.3
       -0.865       281.404        189.46       47407.3
       -0.855       280.965       190.829       47148.4
       -0.845       280.508       192.186       46880.7
       -0.835        280.03       193.523         46603
       -0.825       279.565       194.866       46334.7
       -0.815       279.135        196.24       46085.8
       -0.805        278.71       197.632       45840.1
       -0.795       278.244       198.996       45571.4
       -0.785        277.72       200.314       45274.1
       -0.775       277.239       201.652       45004.4
       -0.765       276.837       203.069         44776
       -0.755       276.441       204.531       44550.1
       -0.745       275.974       205.933       44283.5
       -0.735       275.325       207.211       43925.5
       -0.725       274.798       208.527       43640.4
       -0.715       274.444       210.013       43440.9
       -0.705        274.08       211.573       43236.2
       -0.695       273.669        213.04       43003.3
       -0.685       272.889        214.26       42578.9
       -0.675       272.296       215.491       42271.9
       -0.665       271.994       216.965         42102
       -0.655       271.666       218.508       41920.1
       -0.645       271.354       219.963       41745.3
       -0.635       270.624       221.134       41347.6
       -0.625       269.963       222.262       41017.9
       -0.615       269.689       223.653       40866.7
       -0.605       269.385       225.129       40699.4
       -0.595       269.101       226.581       40548.1
       -0.585       268.594       227.816       40264.5
       -0.575       267.811       228.924       39880.4
       -0.565       267.528        230.26       39731.2
       -0.555       267.261       231.727       39583.4
       -0.545       266.896       233.155       39396.2
       -0.535       266.505       234.419       39183.1
       -0.525       265.677       235.494       38772.6
       -0.515         265.3       236.726       38586.5
       -0.505       265.081       238.196       38465.8
       -0.495       264.745       239.656       38289.6
       -0.485       264.393        241.05         38114
       -0.475       263.867       242.245       37836.7
       -0.465       263.113       243.336         37481
       -0.455       262.827        244.65         37336
       -0.445       262.569       246.115       37198.6
       -0.435       262.239       247.579       37034.6
       -0.425       261.932       248.961       36875.7
       -0.415       261.196       250.113       36515.3
       -0.405       260.586       251.239       36237.7
       -0.395       260.279       252.584       36085.7
       -0.385        260.03       254.058       35960.1
       -0.375       259.694       255.424       35777.5
       -0.365       258.895       256.622         35410
       -0.355       258.579       257.962       35263.4
       -0.345        258.38       259.458       35161.7
       -0.335       258.061       260.885       35010.7
       -0.325        257.69        262.08       34824.5
       -0.315       256.757       263.014       34396.3
       -0.305       256.356       264.094       34213.5
       -0.295       256.188       265.482       34123.7
       -0.285       256.021       266.896       34034.9
       -0.275       255.698       268.183       33885.7
       -0.265       255.202       269.175       33649.8
       -0.255       254.236       269.998       33233.2
       -0.245       253.929       271.143       33094.8
       -0.235       253.775       272.649       33010.8
       -0.225       253.599       274.198       32915.5
       -0.215       253.309       275.613       32777.8
       -0.205       253.064       276.862       32670.6
       -0.195       252.715       277.796       32502.1
       -0.185       251.829        278.46         32139
       -0.175       251.579       279.301       32033.3
       -0.165       251.517        280.41       31991.6
       -0.155       251.489       281.499       31950.7
       -0.145       250.959       282.354         31701
       -0.135       250.633       283.168       31561.7
       -0.125       250.519        284.08       31503.6
       -0.115       250.325       284.923       31424.1
       -0.105       250.078       285.593       31322.7
       -0.095       249.441       286.093       31069.3
       -0.085       249.265       286.682       30990.4
       -0.075       249.256       287.391       30966.3
       -0.065       249.248       287.979       30945.7
       -0.055       249.197       288.415       30914.1
       -0.045       249.209       288.784       30911.1
       -0.035       249.049       289.027       30825.8
       -0.025       248.708       289.202       30689.8
       -0.015       248.647       289.492       30664.6
       -0.005         248.6       289.861       30648.8
        0.005       248.548       290.236       30635.9
        0.015       248.514        290.61       30628.2
        0.025       248.526       290.994       30636.5
        0.035       248.559       291.327       30642.2
        0.045       248.341       291.529       30540.3
        0.055       248.268       291.726       30502.6
        0.065       248.306       292.003       30505.4
        0.075       248.366       292.256         30513
        0.085       248.245       292.411       30453.6
        0.095       248.152       292.538       30424.1
        0.105       248.111       292.701       30420.7
        0.115       248.066        292.87       30419.4
        0.125       248.054       293.035       30426.9
        0.135       248.043        293.17       30423.8
        0.145       247.956        293.26       30386.2
        0.155       247.951       293.364       30379.4
        0.165       247.996       293.494       30389.8
        0.175       247.976       293.576       30368.7
        0.185       247.873       293.613       30321.9
        0.195       247.867        293.68       30315.9
        0.205       247.875       293.781       30318.4
        0.215       247.913       293.889         30333
        0.225       247.885       293.954         30319
        0.235       247.805       293.984       30289.3
        0.245       247.798       294.037       30287.3
        0.255       247.824       294.116       30298.7
        0.265       247.833       294.177       30300.7
        0.275       247.774       294.199       30275.8
        0.285       247.752       294.219         30267
        0.295       247.757       294.265       30269.2
        0.305         247.8       294.325         30285
        0.315       247.808       294.368       30286.4
        0.325       247.791       294.387       30278.2
        0.335        247.79       294.403       30276.3
        0.345       247.793        294.42       30275.5
        0.355       247.795       294.439       30275.6
        0.365       247.822       294.464       30285.9
        0.375       247.834       294.484         30290
        0.385       247.827       294.486       30287.7
        0.395       247.815       294.483       30284.9
        0.405       247.825       294.489       30292.1
        0.415       247.832       294.494       30297.6
        0.425       247.815       294.481         30293
        0.435       247.792       294.464       30287.6
        0.445       247.802       294.462       30294.4
        0.455       247.817       294.464       30301.5
        0.465       247.817       294.456       30301.9
        0.475       247.813       294.441       30300.4
        0.485       247.818       294.428       30302.1
        0.495       247.838       294.419       30307.9
        0.505       247.845       294.405       30308.4
        0.515        247.85       294.388       30308.6
        0.525       247.867       294.373       30313.3
        0.535       247.875       294.356       30314.7
        0.545       247.876       294.334       30313.3
        0.555       247.887       294.319       30317.6
        0.565       247.908       294.307       30324.6
        0.575       247.911       294.289       30325.2
        0.585       247.911       294.265       30324.6
        0.595        247.91       294.241       30323.8
        0.605       247.919       294.223       30327.6
        0.615       247.926       294.206       30329.7
        0.625       247.925       294.184         30329
        0.635       247.926       294.164         30329
        0.645       247.941       294.151       30334.4
        0.655       247.949       294.136       30336.1
        0.665       247.948       294.115       30334.1
        0.675       247.946       294.093         30332
        0.685       247.958        294.08       30335.8
        0.695       247.973        294.07       30340.1
        0.705       247.975       294.053       30339.2
        0.715       247.969       294.032       30335.4
        0.725       247.972       294.016       30335.9
        0.735        247.99       294.009       30341.9
        0.745       247.999           294       30343.6
        0.755       247.999       293.985       30342.3
        0.765       247.994       293.966       30338.8
        0.775       247.998       293.954       30339.4
        0.785       248.013       293.948       30344.3
        0.795       248.017       293.939       30344.5
        0.805       248.008       293.922       30339.8
        0.815       248.006       293.909         30339
        0.825        248.02       293.906       30344.7
        0.835       248.027       293.903       30347.1
        0.845       248.021       293.891       30344.4
        0.855        248.01       293.875       30340.4
        0.865       248.011       293.867       30341.2
        0.875       248.022       293.866       30345.7
        0.885       248.026       293.863       30346.8
        0.895       248.022       293.854       30344.6
        0.905       248.015       293.842       30341.2
        0.915       248.019       293.836       30341.4
        0.925       248.032       293.835       30345.1
        0.935       248.043       293.834       30346.5
        0.945       248.045       293.827       30344.5
        0.955       248.046       293.817       30341.6
        0.965       248.054       293.811       30341.3
        0.975       248.065       293.807         30342
        0.985       248.073       293.804       30342.6
        0.995       248.078         293.8         30342
        1.005       248.081       293.795       30341.2
        1.015       248.085       293.791       30341.1
        1.025       248.089       293.787       30341.2
        1.035       248.092       293.783       30340.7
        1.045       248.095       293.779       30340.3
        1.055         248.1       293.776       30340.3
        1.065       248.105       293.773       30340.4
        1.075       248.108       293.769       30339.8
        1.085       248.113       293.765       30339.4
        1.095       248.119       293.762       30339.5
        1.105       248.125       293.759       30339.3
        1.115       248.129       293.755       30338.4
        1.125       248.135       293.751       30338.2
        1.135       248.142       293.749       30338.4
        1.145       248.149       293.746       30338.4
        1.155       248.155       293.742       30337.6
        1.165       248.162       293.738       30337.3
        1.175        248.17       293.735       30337.4
        1.185       248.179       293.732       30337.4
        1.195       248.186       293.728       30336.4
        1.205       248.194       293.724       30336.1
        1.215       248.205       293.721       30336.4
        1.225       248.216       293.718       30336.5
        1.235       248.225       293.714       30335.5
        1.245       248.235       293.709       30334.9
        1.255       248.248       293.706       30335.1
        1.265       248.261       293.704       30335.5
        1.275       248.273         293.7       30334.8
        1.285       248.284       293.695       30333.9
        1.295       248.298       293.691         30334
        1.305       248.313       293.689       30334.6
        1.315       248.325       293.685       30333.8
        1.325       248.335       293.679       30332.5
        1.335       248.349       293.675       30332.4
        1.345       248.365       293.673       30333.2
        1.355        248.38        293.67       30333.3
        1.365       248.391       293.665       30331.9
        1.375       248.406        293.66       30331.4
        1.385       248.423       293.656       30331.4
        1.395       248.441       293.653       30331.6
        1.405        248.46       293.649       30331.3
        1.415       248.479       293.644       30330.2
        1.425       248.502        293.64         30330
        1.435        248.53       293.636       30330.1
        1.445       248.559       293.632       30329.9
        1.455       248.589       293.627       30328.7
        1.465       248.624       293.623       30328.4
        1.475       248.662       293.619       30328.6
        1.485       248.699       293.615       30328.5
        1.495       248.731        293.61       30327.2
        1.505       248.764       293.606       30326.7
        1.515       248.797       293.603       30326.9
        1.525       248.831         293.6       30327.1
        1.535       248.863       293.596       30325.4
        1.545       248.903       293.592       30324.7
        1.555       248.954       293.591       30324.9
        1.565       249.018        293.59       30325.6
        1.575       249.095       293.588       30324.7
        1.585       249.191       293.587       30323.1
        1.595       249.321       293.588       30322.9
        1.605       249.493       293.592       30323.1
        1.615       249.722         293.6       30323.5
        1.625       250.029       293.609       30322.9
        1.635       250.449        293.62         30322
        1.645       251.036       293.637       30321.9
        1.655       251.854        293.66       30322.3
        1.665       252.991       293.687       30322.4
        1.675       254.562       293.718       30321.6
        1.685       256.714       293.753       30321.1
        1.695       259.624       293.791         30321
        1.705       263.495       293.831         30321
        1.715        268.55       293.865       30320.5
        1.725       275.011       293.888       30317.9
        1.735       283.095       293.893       30314.8
        1.745       292.984       293.879       30313.8
        1.755       304.751        293.84       30313.9
        1.765       318.305       293.768       30310.5
        1.775        333.34       293.662       30307.3
        1.785         349.2       293.534       30307.5
        1.795       364.652       293.392       30308.9
        1.805       377.897       293.266       30309.6
        1.815       387.428       293.198       30310.8
        1.825       393.183       293.207       30313.7
        1.835       396.303       293.265       30318.5
        1.845       397.854       293.326       30318.1
        1.855        398.55       293.372         30313
        1.865       398.833       293.406       30311.9
        1.875       398.942       293.439       30314.5
        1.885       398.972       293.462       30316.9
        1.895       398.944       293.457       30310.5
        1.905       398.886       293.443       30306.3
        1.915       398.825       293.448         30310
        1.925       398.739       293.463       30315.8
        1.935       398.588        293.46       30314.6
        1.945       398.399       293.439       30305.6
        1.955       398.275       293.428         30303
        1.965        398.24       293.443       30310.9
        1.975       398.224       293.459       30317.2
        1.985       398.194       293.451       30314.3
        1.995       398.134       293.425       30303.3
        2.005       398.116       293.408       30301.8
        2.015       398.126       293.418       30308.1
        2.025       398.139       293.437       30313.7
        2.035       398.133       293.439       30314.3
        2.045       398.093        293.42       30306.2
        2.055       398.061         293.4       30301.1
        2.065        398.06       293.402       30303.4
        2.075       398.082       293.419       30311.2
        2.085       398.081       293.429       30312.5
        2.095       398.053       293.416       30306.7
        2.105       398.024       293.399       30301.5
        2.115       398.027       293.402         30304
        2.125       398.048       293.419       30310.6
        2.135       398.048       293.424       30311.2
        2.145       398.016       293.407       30303.8
        2.155       397.997       293.395       30300.2
        2.165       398.012       293.406       30305.5
        2.175       398.036       293.423       30311.8
        2.185       398.028        293.42       30309.8
        2.195       397.987       293.398       30300.7
        2.205       397.977       293.389       30299.1
        2.215       398.002       293.406       30306.9
        2.225       398.023       293.423       30312.5
        2.235        398.01       293.416       30309.2
        2.245       397.966       293.393       30299.2
        2.255        397.96       293.384       30298.5
        2.265       397.989       293.401         30307
        2.275       398.006        293.42       30311.4
        2.285       397.996       293.413       30308.5
        2.295       397.959       293.391         30300
        2.305       397.951       293.383       30298.8
        2.315       397.975       293.398       30305.6
        2.325       397.995       293.414       30310.5
        2.335       397.985       293.409       30307.9
        2.345        397.95        293.39       30299.7
        2.355       397.946       293.382       30299.1
        2.365       397.969       293.396         30306
        2.375       397.983       293.411       30309.5
        2.385       397.973       293.404       30306.6
        2.395       397.943       293.385       30299.8
        2.405       397.938       293.381       30299.3
        2.415       397.961       293.395       30305.9
        2.425       397.976       293.408       30309.7
        2.435       397.963         293.4       30306.3
        2.445       397.932       293.382       30299.2
        2.455       397.928       293.379       30299.1
        2.465       397.952       293.393       30305.8
        2.475       397.965       293.404       30309.3
        2.485       397.953       293.397       30306.2
        2.495       397.922        293.38       30299.4
        2.505       397.918       293.376       30299.1
        2.515       397.938       293.389         30305
        2.525        397.95         293.4       30308.5
        2.535        397.94       293.394       30306.2
        2.545        397.91       293.379       30299.6
        2.555       397.906       293.373       30299.4
        2.565       397.924       293.384       30304.9
        2.575       397.932       293.395       30307.3
        2.585       397.925       293.391       30305.6
        2.595         397.9       293.376       30300.3
        2.605       397.894       293.371       30299.4
        2.615       397.908       293.381       30303.8
        2.625        397.92        293.39       30307.1
        2.635       397.912       293.386       30305.3
        2.645       397.887       293.373       30299.5
        2.655       397.883       293.366       30299.2
        2.665       397.899       293.374       30303.9
        2.675       397.906       293.384         30306
        2.685         397.9       293.378       30304.2
        2.695       397.878       293.363       30299.4
        2.705       397.873       293.358       30298.7
        2.715       397.885       293.364       30302.4
        2.725       397.896        293.37       30305.2
        2.735       397.889       293.363       30303.3
        2.745       397.866        293.35       30298.1
        2.755       397.863       293.341       30297.9
        2.765       397.875       293.344       30301.5
        2.775       397.881       293.349       30303.1
        2.785       397.874        293.34       30301.2
        2.795       397.856       293.324       30297.2
        2.805       397.851       293.315       30296.4
        2.815       397.858       293.314       30298.6
        2.825       397.867       293.313       30300.9
        2.835        397.86       293.302       30298.9
        2.845       397.839       293.284       30294.2
        2.855       397.837       293.269       30294.1
        2.865       397.842       293.262       30295.8
        2.875       397.845       293.257       30296.7
        2.885       397.837       293.239       30294.5
        2.895        397.82       293.215       30290.9
        2.905       397.814       293.196       30289.8
        2.915       397.815       293.181       30290.1
        2.925       397.819       293.164       30291.5
        2.935        397.81       293.139       30289.1
        2.945       397.783       293.105       30282.6
        2.955       397.778       293.071       30281.9
        2.965       397.774       293.042       30281.1
        2.975       397.773       293.016         30281
        2.985       397.768       292.976       30279.4
        2.995       397.732        292.92       30270.6
        3.005       397.711       292.867         30266
        3.015       397.708        292.82       30265.3
        3.025       397.708       292.775       30265.9
        3.035       397.706        292.72         30265
        3.045       397.648       292.636         30250
        3.055        397.61       292.545       30241.6
        3.065       397.601       292.468       30239.4
        3.075       397.599       292.398       30239.3
        3.085       397.604       292.318       30240.2
        3.095       397.532        292.19       30220.3
        3.105       397.451       292.038       30201.5
        3.115       397.432       291.907       30196.8
        3.125       397.425        291.79       30195.3
        3.135       397.433       291.666       30197.6
        3.145       397.361       291.473       30175.9
        3.155       397.185       291.216       30134.2
        3.165       397.137       290.978         30123
        3.175       397.118       290.767       30118.4
        3.185       397.121       290.552         30120
        3.195       397.075       290.246       30103.7
        3.205        396.75       289.783       30022.5
        3.215       396.571        289.27       29981.5
        3.225       396.473       288.759       29958.2
        3.235       396.373       288.172       29935.7
        3.245        396.28       287.418       29914.2
        3.255       395.845       286.227       29797.4
        3.265        394.88       284.484       29571.6
        3.275       394.209       282.331       29419.8
        3.285       393.504       279.572       29255.1
        3.295       392.322       275.572       28978.5
        3.305       390.215       269.295       28483.1
        3.315       386.345       259.017       27586.2
        3.325       380.015       241.075       26146.4
        3.335       368.245       202.369       23384.7
        3.345       327.559       117.137       15933.9
        3.355       287.072       28.3217       11019.6
        3.365        280.09       4.37949       10167.8
        3.375       278.945      0.658292       10024.9
        3.385       278.775     0.0970662       10003.7
        3.395        278.75      0.014236       10000.5
        3.405       278.747    0.00208803       10000.1
        3.415       278.746   0.000306135         10000
        3.425       278.746   4.48773e-05         10000
        3.435       278.746   6.57854e-06         10000
        3.445       278.746   9.64381e-07         10000
        3.455       278.746   1.41373e-07         10000
        3.465       278.746   2.07229e-08         10000
        3.475       278.746   3.03583e-09         10000
        3.485       278.746   4.41632e-10         10000
        3.495       278.746   6.28247e-11         10000
        3.505       278.746   6.37612e-12         10000
        3.515       278.746   2.97581e-13         10000
        3.525       278.746   2.60529e-12         10000
        3.535       278.746   3.95316e-13         10000
        3.545       278.746   6.56429e-13         10000
        3.555       278.746   2.77159e-14         10000
        3.565       278.746   9.61304e-13         10000
        3.575       278.746   2.11808e-12         10000
        3.585       278.746   2.81098e-12         10000
        3.595       278.746   7.17696e-13         10000
        3.605       278.746     4.595e-13         10000
        3.615       278.746   1.28806e-12         10000
        3.625       278.746   9.00037e-13         10000
        3.635       278.746   1.22825e-12         10000
        3.645       278.746   3.45719e-12         10000
        3.655       278.746    9.7735e-13         10000
        3.665       278.746   3.73873e-12         10000
        3.675       278.746   3.82188e-12         10000
        3.685       278.746   5.98955e-12         10000
        3.695       278.746   4.38057e-12         10000
        3.705       278.746   5.19017e-12         10000
        3.715       278.746   4.20115e-12         10000
        3.725       278.746   5.11869e-12         10000
        3.735       278.746   5.07493e-12         10000
        3.745       278.746   4.65919e-12         10000
        3.755       278.746   4.57458e-12         10000
        3.765       278.746   3.70664e-12         10000
        3.775       278.746   5.26019e-12         10000
        3.785       278.746   4.52936e-12         10000
        3.795       278.746   1.64253e-12         10000
        3.805       278.746   2.47109e-12         10000
        3.815       278.746   2.53236e-12         10000
        3.825       278.746   2.00721e-12         10000
        3.835       278.746   2.42441e-12         10000
        3.845       278.746   2.89266e-12         10000
        3.855       278.746   1.73443e-12         10000
        3.865       278.746   1.53021e-12         10000
        3.875       278.746   1.19762e-12         10000
        3.885       278.746   1.67025e-12         10000
        3.895       278.746   2.36315e-13         10000
        3.905       278.746   1.60898e-12         10000
        3.915       278.746   1.93282e-12         10000
        3.925       278.746   5.03262e-13         10000
        3.935       278.746   1.23409e-12         10000
        3.945       278.746   1.92261e-12         10000
        3.955       278.746   2.39524e-12         10000
        3.965       278.746    8.1689e-13         10000
        3.975       278.746   6.28713e-13         10000
        3.985       278.746   1.92553e-12         10000
        3.995       278.746   3.87293e-12         10000
        4.005       278.746   4.34848e-12         10000
        4.015       278.746   2.65052e-12         10000
        4.025       278.746   3.29236e-12         10000
        4.035       278.746   3.36967e-13         10000
        4.045       278.746   2.29021e-12         10000
        4.055       278.746   6.97274e-13         10000
        4.065       278.746   8.13972e-13         10000
        4.075       278.746    8.1689e-14         10000
        4.085       278.746   1.26472e-12         10000
        4.095       278.746   2.95539e-12         10000
        4.105       278.746   7.55623e-13         10000
        4.115       278.746   6.68099e-13         10000
        4.125       278.746   2.45359e-12         10000
        4.135       278.746   2.31501e-12         10000
        4.145       278.746   3.12023e-12         10000
        4.155       278.746   5.14932e-12         10000
        4.165       278.746    2.5557e-12         10000
        4.175       278.746   6.06832e-13         10000
        4.185       278.746   2.75992e-12         10000
        4.195       278.746   1.20783e-12         10000
        4.205       278.746   3.32299e-12         10000
        4.215       278.746   2.87662e-12         10000
        4.225       278.746   2.03201e-12         10000
        4.235       278.746   2.04952e-12         10000
        4.245       278.746   2.52944e-12         10000
        4.255       278.746   3.76936e-12         10000
        4.265       278.746    4.0509e-12         10000
        4.275       278.746   2.58341e-12         10000
        4.285       278.746   2.02034e-12         10000
        4.295       278.746   8.13972e-13         10000
        4.305       278.746   1.28077e-12         10000
        4.315       278.746   1.89781e-12         10000
        4.325       278.746   6.50594e-13         10000
        4.335       278.746    2.4565e-12         10000
        4.345       278.746   2.31209e-12         10000
        4.355       278.746   2.91309e-12         10000
        4.365       278.746   5.21497e-12         10000
        4.375       278.746   4.29888e-12         10000
        4.385       278.746   5.50379e-12         10000
        4.395       278.746   3.30111e-12         10000
        4.405       278.746   5.08076e-12         10000
        4.415       278.746   5.35792e-12         10000
        4.425       278.746    5.9983e-12         10000
        4.435       278.746   6.27984e-12         10000
        4.445       278.746   6.37028e-12         10000
        4.455       278.746   7.15654e-12         10000
        4.465       278.746   5.39439e-12         10000
        4.475       278.746   5.76199e-12         10000
        4.485       278.746   6.50157e-12         10000
        4.495       278.746   6.68099e-12         10000
        4.505       278.746   6.22441e-12         10000
        4.515       278.746   6.30318e-12         10000
        4.525       278.746   5.60591e-12         10000
        4.535       278.746   4.56729e-12         10000
        4.545       278.746    6.3484e-12         10000
        4.555       278.746   5.80575e-12         10000
        4.565       278.746   6.66495e-12         10000
        4.575       278.746   6.45051e-12         10000
        4.585       278.746   6.67953e-12         10000
        4.595       278.746   5.41627e-12         10000
        4.605       278.746   5.13182e-12         10000
        4.615       278.746   5.27769e-12         10000
        4.625       278.746   6.26525e-12         10000
        4.635       278.746   7.73274e-12         10000
        4.645       278.746   8.21266e-12         10000
        4.655       278.746   1.03118e-11         10000
        4.665       278.746   9.37527e-12         10000
        4.675       278.746    9.2046e-12         10000
        4.685       278.746   8.41396e-12         10000
        4.695       278.746   7.62333e-12         10000
        4.705       278.746   7.18571e-12         10000
        4.715       278.746   6.51178e-12         10000
        4.725       278.746   6.99462e-12         10000
        4.735       278.746     6.239e-12         10000
        4.745       278.746   6.34111e-12         10000
        4.755       278.746   6.38779e-12         10000
        4.765       278.746   6.36007e-12         10000
        4.775       278.746   7.51684e-12         10000
        4.785       278.746   6.80936e-12         10000
        4.795       278.746   8.18203e-12         10000
        4.805       278.746   8.29727e-12         10000
        4.815       278.746   8.30748e-12         10000
        4.825       278.746   7.03255e-12         10000
        4.835       278.746    5.6307e-12         10000
        4.845       278.746   4.77443e-12         10000
        4.855       278.746   4.89988e-12         10000
        4.865       278.746   6.58617e-12         10000
        4.875       278.746   6.80352e-12         10000
        4.885       278.746   7.19446e-12         10000
        4.895       278.746   5.97788e-12         10000
        4.905       278.746    7.8859e-12         10000
        4.915       278.746   6.65036e-12         10000
        4.925       278.746   7.75024e-12         10000
        4.935       278.746   7.05589e-12         10000
        4.945       278.746   6.24629e-12         10000
        4.955       278.746   6.34548e-12         10000
        4.965       278.746   5.90932e-12         10000
        4.975       278.746   5.06763e-12         10000
        4.985       278.746   5.56798e-12         10000
        4.995       278.746   5.59715e-12         10000
